Time(s),Neutron_Density(#/cc),Power(MW),Reactivity($),Fuel_Temp(K),Coolant_Temp(K),Flow_Rate(kg/s),Rod_Position(%),Xe-135(atoms/cc),Sm-149(atoms/cc)
0.5000000000000003,221702.8504118955,0.12189364605470275,-1.3459955949851404e-06,450.12502374757406,450.0007458946428,200.1739986369474,0.0,10.412641633255264,5.650437233682614e-10
1.0000000000000007,181288.8677570766,0.09967377974159436,-1.4691577797127046e-06,450.1364637534297,450.00157950454553,200.13324827504027,0.0,11.579065330398954,2.471870739079915e-09
1.50499999999999,160550.8468395944,0.08827188311782878,-1.5688470019412273e-06,450.1457234566213,450.0024561032182,200.31143697429232,0.0,12.586711806850019,5.916635328691987e-09
2.0099999999999794,147692.69390954293,0.08120238834470772,-1.6540727983721255e-06,450.15363971431185,450.00335459809185,200.0978973821109,0.0,13.498508380022349,1.1020628056452215e-08
2.5149999999999686,138661.7711080399,0.07623712919053541,-1.7293983958096126e-06,450.1606363850366,450.0042668023914,200.28805896259345,0.0,14.34705748570929,1.7903998040455378e-08
3.019999999999958,131806.39289758814,0.07246799837600851,-1.7972679113273036e-06,450.16694049233155,450.0051868827058,200.08067178248308,0.0,15.14944768469963,2.667834904360883e-08
3.524999999999947,126310.64305550879,0.06944639994003428,-1.8591705771600192e-06,450.17269036458225,450.00611043935623,200.2746033289723,0.0,15.915860326200903,3.744908417790266e-08
4.029999999999936,121719.60620657679,0.06692221849785564,-1.916091747459225e-06,450.1779775271036,450.0070339662048,200.06963225810586,0.0,16.65285455863482,5.03167860666554e-08
4.5349999999999255,117762.50730095008,0.06474658019410907,-1.9687215175419803e-06,450.1828660798858,450.0079546311058,200.26527239099747,0.0,17.3649023354838,6.537809863385364e-08
5.039999999999915,114271.80013934468,0.0628273670561326,-2.0175706973224725e-06,450.187403469868,450.00887005287626,200.06151568963824,0.0,18.055209533636866,8.272632645381276e-08
5.544999999999904,111140.54363032494,0.061105782187431894,-2.0630336688477243e-06,450.19162632950497,450.00977824738845,200.2580900366499,0.0,18.726187326884578,1.0245186183725647e-07
6.049999999999893,108298.22939720287,0.059543059631250284,-2.1054300763827886e-06,450.1955643491799,450.0106775017418,200.05504877384817,0.0,19.37973227297419,1.2464249805182912e-07
6.5549999999998825,105696.60784853065,0.058112671453412375,-2.1450259379548795e-06,450.1992422381651,450.0115663759557,200.25221185985092,0.0,20.017395786831095,1.493837035258426e-07
7.059999999999872,103301.24328836094,0.05679568468789789,-2.182051164330104e-06,450.2026813518844,450.0124436144958,200.0496494761414,0.0,20.640488572421706,1.7675882190626828e-07
7.564999999999861,101086.44145996647,0.055577972467914905,-2.216706165335353e-06,450.20590030554615,450.0133081682714,200.24722775357856,0.0,21.250145955065598,2.0684924458143223e-07
8.064999999999861,99051.78819269629,0.05445930707978884,-2.2488593407158107e-06,450.20888687537354,450.01415076978606,200.24501823884358,0.0,21.841514518097295,2.393950107149996e-07
8.564999999999939,97158.74993862025,0.05341850253225302,-2.2790214523149476e-06,450.2116885038354,450.0149793058602,200.24295348536526,0.0,22.421564296228738,2.747562413753609e-07
9.065000000000017,95394.1192805484,0.0524482973028089,-2.307334527681672e-06,450.2143183832609,450.01579315667544,200.24101870079414,0.0,22.991080943083187,3.130070848040147e-07
9.565000000000095,93746.54545298257,0.05154245066794071,-2.333928102647201e-06,450.2167885456773,450.01659180961116,200.23920155846113,0.0,23.55077875646221,3.5422030183133143e-07
10.065000000000174,92206.08922024645,0.050695497972262506,-2.3589207454214927e-06,450.2191100043765,450.01737484788566,200.237491570328,0.0,24.101310127804762,3.984673590587157e-07
10.565000000000252,90763.92896289032,0.04990258903294246,-2.3824212686147332e-06,450.2212928664947,450.018141940476,200.2358796577845,0.0,24.64327286765182,4.458185139546558e-07
11.06500000000033,89412.15995483358,0.04915937778099121,-2.4045297270093775e-06,450.2233464256911,450.01889283311,200.2343578527739,0.0,25.177216104953274,4.963428924965447e-07
11.565000000000408,88143.65172532009,0.04846194383795202,-2.4253382632107315e-06,450.22527924069664,450.01962734016087,200.23291908537584,0.0,25.703645198466692,5.501085606553531e-07
12.065000000000486,86951.94231532727,0.04780673437739775,-2.4449318397982003e-06,450.22709920332056,450.0203453373523,200.23155702927124,0.0,26.22302593087189,6.0718259017723e-07
12.565000000000564,85831.15651322533,0.04719051917037297,-2.4633888834028116e-06,450.2288135982759,450.02104675516097,200.23026598640666,0.0,26.735788160379748,6.67631119208814e-07
13.065000000000643,84775.940153005,0.046610354462139125,-2.480781857758689e-06,450.2304291564078,450.02173157285335,200.2290407985913,0.0,27.242329044956733,7.315194082425496e-07
13.56500000000072,83781.40557195827,0.046063552984458314,-2.497177777632557e-06,450.2319521024302,450.0223998130842,200.22787677792275,0.0,27.743015917553727,7.989118918025745e-07
14.065000000000799,82843.08514638907,0.04554765840922965,-2.5126386721707347e-06,450.23338819796425,450.0230515370095,200.2267696506473,0.0,28.238188867836737,8.698722262463264e-07
14.565000000000877,81956.89092948077,0.04506042315713048,-2.527222004342053e-06,450.2347427804983,450.0236868398631,200.22571551083044,0.0,28.728163071405383,9.444633340187525e-07
15.065000000000955,81119.07909032106,0.044599788845964695,-2.540981051481407e-06,450.23602079873535,450.02430584693985,200.22471078136974,0.0,29.213230898070027,1.0227474446631435e-06
15.565000000001033,80326.21804048469,0.04416386876645394,-2.5539652553167356e-06,450.23722684510517,450.0249087100594,200.2237521806347,0.0,29.69366384837099,1.1047861121091413e-06
16.06500000000109,79575.16031733646,0.04375093242349761,-2.5662205329252755e-06,450.23836518464793,450.0254956042068,200.22283669353004,0.0,30.16971426792929,1.1906402643046348e-06
16.570000000000988,78856.08322144498,0.043355579234083064,-2.5779021189569102e-06,450.239450236438,450.02607235532435,200.02196154622297,0.0,30.64631573468931,1.2812873370886139e-06
17.075000000000887,78173.97102676601,0.04298054958393052,-2.5889241468611128e-06,450.240474024706,450.026633237359,200.22110780543892,0.0,31.118911176205042,1.3759497711349093e-06
17.580000000000787,77526.31451138404,0.04262446388677182,-2.599325452115628e-06,450.2414401567126,450.02717847966306,200.02030655774084,0.0,31.58771033754233,1.4746886301688796e-06
18.085000000000687,76910.80776006219,0.04228605433565186,-2.609140664589032e-06,450.2423518490777,450.0277083353414,200.21952348650277,0.0,32.05290880548362,1.5775644565939058e-06
18.590000000000586,76325.33015454044,0.04196415500107931,-2.6184035974356697e-06,450.24321224256,450.02822305898167,200.0187872620721,0.0,32.514689151854725,1.6846372974916182e-06
19.095000000000486,75767.93003689186,0.04165769284903538,-2.627144251657483e-06,450.24402412382375,450.02872292371273,200.2180665011798,0.0,32.97322197577808,1.7959667288945776e-06
19.600000000000385,75236.80987403519,0.041365679584327734,-2.6353921817850243e-06,450.2447902380624,450.0292082018253,200.0173877261402,0.0,33.42866685419314,1.9116118784696554e-06
20.105000000000285,74730.31278829422,0.041087204245006004,-2.643173458516789e-06,450.24551300687125,450.02967917973615,200.21672212889666,0.0,33.881173209080025,2.0316314467381567e-06
20.610000000000184,74246.91031557466,0.04082142647172896,-2.6505140150270356e-06,450.24619483907145,450.0301361413339,200.0160943154382,0.0,34.33088109902079,2.1560837269477956e-06
21.115000000000084,73785.19128476438,0.04056757039358768,-2.657436575153565e-06,450.24683784538274,450.03057938088625,200.21547774829827,0.0,34.77792194200958,2.2850266237014198e-06
21.619999999999983,73343.85170434778,0.04032491906770131,-2.6639639835029768e-06,450.24744414774256,450.03100918895035,200.0148953178605,0.0,35.22241917577632,2.4185176704384253e-06
22.124999999999883,72921.68557167979,0.0400928094260972,-2.6701161053157908e-06,450.2480155913478,450.03142586327857,200.2143224970206,0.0,35.66448886130297,2.556614045856485e-06
22.629999999999782,72517.57650981398,0.03987062767758538,-2.6759131428812854e-06,450.24855405270233,450.0318296971397,200.0137806349612,0.0,36.10424023468408,2.6993725893534613e-06
23.134999999999682,72130.49016473688,0.039657805127709396,-2.681372512186862e-06,450.2490611495025,450.0322209882883,200.21324699173456,0.0,36.54177621200541,2.8468498155630825e-06
23.63999999999958,71759.46728293502,0.03945381437274828,-2.6865121476962434e-06,450.2495385476036,450.03260002954767,200.012741527352,0.0,36.977193851477274,2.999101928049797e-06
24.14499999999948,71403.61741647225,0.03925816583872791,-2.6913473600595386e-06,450.2499876691462,450.03296711590946,200.212243096824,0.0,37.41058477666499,3.156184832218003e-06
24.64999999999938,71062.11318717644,0.039070404627833996,-2.695894130850823e-06,450.2504099985901,450.0333225372588,200.0117704039606,0.0,37.84203556433959,3.318154147512041e-06
25.15499999999928,70734.1850690938,0.03889010764977221,-2.7001659549758518e-06,450.25080678941913,450.0336665836643,200.21130373260053,0.0,38.27162810009865,3.4850652189465315e-06
25.65999999999918,70419.11663082243,0.038716881005972606,-2.704177126569099e-06,450.2511793693541,450.03399954011593,200.01086064704342,0.0,38.69943990462706,3.6569731280084274e-06
26.16499999999908,70116.24020642386,0.03855035760942915,-2.707939569178558e-06,450.2515288459221,450.0343216900889,200.21042271581365,0.0,39.12554443322167,3.83393270297905e-06
26.66999999999898,69824.93294419943,0.0383901950122917,-2.7114661138503554e-06,450.251856410944,450.03463331217193,200.0100064664567,0.0,39.5500113509534,4.0159985287157944e-06
27.174999999998878,69544.61321035796,0.03823607342857935,-2.714767319516493e-06,450.25216304519364,450.03493468197854,200.20959462665465,0.0,39.97290678562184,4.203224955930121e-06
27.679999999998778,69274.73730308442,0.03808769392755455,-2.7178547441476607e-06,450.25244982224126,450.0352260705509,200.00920277798093,0.0,40.39429356046303,4.39566610999535e-06
28.184999999998677,69014.79646093323,0.03794477678891843,-2.7207377575035726e-06,450.2527176124036,450.035507744702,200.20881469755105,0.0,40.814231408386746,4.593375899315174e-06
28.689999999998577,68764.31412604648,0.03780705999811076,-2.723426805886391e-06,450.25296738599286,450.0357799670886,200.00844510143926,0.0,41.23277716936237,4.796408023281323e-06
29.194999999998476,68522.84345191355,0.037674297876060164,-2.7259302191012014e-06,450.2531999167288,450.0360429950546,200.20807871993213,0.0,41.64998497242109,5.004815979846588e-06
29.699999999998376,68289.96502014791,0.037546259823853456,-2.7282574693118627e-06,450.2534160844401,450.0362970822716,200.00772947517052,0.0,42.06590640361022,5.218653072737348e-06
30.204999999998275,68065.28476088571,0.03742272917935744,-2.730415973696875e-06,450.2536165780766,450.0365424761633,200.2073829658565,0.0,42.48059066111294,5.4379724183280465e-06
30.709999999998175,67848.4320444255,0.037303502167990214,-2.732414347785859e-06,450.25380219789787,450.03677942102144,200.00705238404436,0.0,42.89408469863809,5.662826952197979e-06
31.214999999998074,67639.05794285845,0.03718838694695441,-2.7342592050965642e-06,450.25397355820513,450.03700815407706,200.20672412196043,0.0,43.30643335808216,5.893269435389507e-06
31.719999999997974,67436.83363176392,0.03707720272647905,-2.7359584052720402e-06,450.2541313890469,450.03722891000376,200.00641069870508,0.0,43.71767949237825,6.1293524603855415e-06
32.21999999999803,67243.35087757616,0.03697082466993699,-2.73750327303068e-06,450.2542748846191,450.0374398444155,200.00610526303828,0.0,44.12380792009137,6.368706560999864e-06
32.71999999999829,67056.28860733582,0.03686797663656032,-2.738917734715426e-06,450.25440626733143,450.0376433988789,200.00580750312386,0.0,44.528933783302456,6.613692194945102e-06
33.21999999999854,66875.37795231989,0.036768510800604365,-2.740207694956201e-06,450.25452608563955,450.03783978537695,200.00551712339544,0.0,44.933093538274164,6.864359951619601e-06
33.7199999999988,66700.36443752659,0.03667228725008452,-2.7413787810214627e-06,450.2546348622363,450.03802921108866,200.00523384349907,0.0,45.33632212109396,7.1207602789209685e-06
34.219999999999054,66531.00699743659,0.036579173445635424,-2.742436358244791e-06,450.2547330954844,450.0382118784111,200.00495739731608,0.0,45.73865302853869,7.3829434878134176e-06
34.71999999999931,66367.07707016474,0.036489043722469826,-2.7433855443994865e-06,450.25482126075195,450.0383879849979,200.00468753205948,0.0,46.140118393621904,7.650959755422148e-06
35.219999999999565,66208.35776394144,0.03640177883210469,-2.7442312231448102e-06,450.254899811661,450.0385577237973,200.004424007437,0.0,46.540749056124895,7.924859127307221e-06
35.71999999999982,66054.64309731007,0.03631726552461689,-2.7449780564398337e-06,450.25496918124094,450.038721283088,200.00416659487695,0.0,46.940574627265164,8.20469152840304e-06
36.22000000000008,65905.7372902198,0.036235396158881494,-2.7456304963036906e-06,450.2550297830207,450.03887884653795,200.0039150768064,0.0,47.339623551604575,8.490506763517217e-06
36.72000000000033,65761.45411336867,0.036156068344836416,-2.746192795801088e-06,450.2550820120492,450.0390305932619,200.0036692459878,0.0,47.73792316452469,8.782354520715532e-06
37.22000000000059,65621.61628826817,0.03607918461363408,-2.74666901928854e-06,450.255126245847,450.0391766978783,200.0034289048991,0.0,48.135499746014524,9.080284374897724e-06
37.720000000000844,65486.05493337505,0.03600465211312118,-2.747063052013761e-06,450.2551628452982,450.0393173305753,200.00319386515912,0.0,48.532378571098256,9.384345791234824e-06
38.2200000000011,65354.609052339365,0.03593238232647412,-2.747378609155095e-06,450.2551921554896,450.03945265717874,200.00296394699225,0.0,48.92858395716355,9.694588128475678e-06
38.720000000001356,65227.12506077458,0.03586229081201425,-2.7476192442930405e-06,450.2552145064982,450.0395828392222,200.0027389787327,0.0,49.32413930842254,1.001106064212863e-05
39.22000000000161,65103.456348276624,0.03579429696240312,-2.7477883573297755e-06,450.2552302141262,450.03970803401745,200.0025187963602,0.0,49.71906715772133,1.0333812487523478e-05
39.72000000000187,64983.4628727129,0.03572832378157994,-2.7478892020072303e-06,450.2552395805997,450.0398283947295,200.00230324306946,0.0,50.11338920589508,1.066289272276013e-05
40.22000000000212,64867.010784069564,0.03566429767795046,-2.7479248929270103e-06,450.25524289522076,450.0399440704545,200.0020921688695,0.0,50.5071263588477,1.0998350311548492e-05
40.72000000000238,64753.97207538575,0.03560214827246837,-2.747898412182338e-06,450.25524043498314,450.0400552062943,200.001885430205,0.0,50.900298762521494,1.1340234125944297e-05
41.220000000002635,64644.224258525275,0.03554180822037246,-2.74781261562158e-06,450.25523246515434,450.04016194343495,200.00168288960901,0.0,51.29292583590975,1.1688592948986378e-05
41.72000000000289,64537.650062735054,0.035483213045452135,-2.7476702387335773e-06,450.25521923982217,450.04026441922434,200.00148441537547,0.0,51.68502630224659,1.2043475477238055e-05
42.22000000000315,64434.137154120974,0.03542630098581349,-2.7474739022049624e-06,450.25520100241096,450.0403627672536,200.001289881253,0.0,52.0766182185067,1.2404930323238641e-05
42.7200000000034,64333.57787433801,0.035371012850209424,-2.747226117203308e-06,450.25517798617227,450.04045711743237,200.00109916615915,0.0,52.46771900332759,1.2773006017867004e-05
43.22000000000366,64235.86899694086,0.035317291884079664,-2.7469292903255326e-06,450.25515041464456,450.040547596072,200.00091215391183,0.0,52.8583454634639,1.3147751012622748e-05
43.720000000003914,64140.91149997754,0.03526508364452125,-2.7465857283259908e-06,450.25511850209233,450.04063432596155,200.00072873297913,0.0,53.2485138188715,1.352921368182645e-05
44.22000000000417,64048.610353532415,0.03521433588347838,-2.7461976425606115e-06,450.25508245391893,450.04071742644777,200.00054879624386,0.0,53.6382397265129,1.3917442324744e-05
44.720000000004426,63958.87432103941,0.035164998438503126,-2.7457671531960413e-06,450.25504246705754,450.04079701351316,200.000372240782,0.0,54.027538302967244,1.431248516763724e-05
45.22000000000468,63871.615773286016,0.0351170231304936,-2.7452962932462073e-06,450.2549987303461,450.04087319985285,200.00019896765477,0.0,54.41642414592142,1.471439036574351e-05
45.72000000000494,63786.75051412415,0.03507036366786874,-2.744787012339004e-06,450.2549514248771,450.04094609495377,200.00002888171608,0.0,54.80491135461438,1.5123206005188315e-05
46.22000000000519,63704.19761698781,0.03502497555668464,-2.7442411803403868e-06,450.25490072433445,450.04101580516925,199.99986189142774,0.0,55.19301354929888,1.553898010483186e-05
46.72000000000545,63624.55267186247,0.03498118625612709,-2.660465573415408e-06,450.25484680868493,450.0410824422588,199.99969791039393,0.05807641065084147,55.58074528968805,1.596174060145489e-05
47.220000000005705,63562.925316443354,0.034947303141702586,-9.932494272446777e-07,450.25479030200745,450.0411461170162,199.9995370350572,0.26634620569253414,55.9681578577274,1.639150944615472e-05
47.72000000000596,63537.52311740939,0.03493333685009964,3.7130882540082984e-06,450.25473319655003,450.0412069160287,199.99937991493672,0.5115889553544867,56.355415346111215,1.6828378233459695e-05
48.220000000006216,63553.59354616031,0.03494217247467763,1.1561117099869867e-05,450.25467824654885,450.0412649572205,199.99922744019776,0.7615072444392981,56.7427489717445,1.7272394842355114e-05
48.72000000000647,63613.95285325865,0.03497535840801987,2.248993567315707e-05,450.25462837652896,450.0413203726821,199.999080477151,1.0114357087302175,57.13040873427877,1.7723607065998724e-05
49.22000000000673,63721.93228830825,0.035034726192478514,3.650237405711891e-05,450.25458668099225,450.04137330911556,199.99893984677394,1.2614251576765731,57.51866364539753,1.8182062712311547e-05
49.72000000000698,63880.82059204317,0.03512208399875712,5.359600689920513e-05,450.2545564250085,450.0414239283989,199.9988063047881,1.5114248668863972,57.90780206145693,1.8647809651500513e-05
50.22000000000724,64094.01305557818,0.03523929857964044,7.376923862783473e-05,450.2545410439962,450.04147240810397,199.99868052194577,1.7614246643618305,58.29813194240721,1.912089585268695e-05
50.720000000007495,64365.0777149369,0.03538833166416968,9.70207674645368e-05,450.2545441504205,450.0415189420246,199.9985630679213,2.0114243304554837,58.6899816821879,1.960136942382897e-05
51.22000000000775,64697.81318167109,0.03557127175328712,0.0001233491038800663,450.2545695446608,450.04156374073347,199.99845439780225,2.2614237799376204,59.0837012937472,2.0089278654241564e-05
51.72000000000801,65096.30830314193,0.03579036692144057,0.00015275255532426008,450.2546212298237,450.04160703221373,199.9983548412142,2.5114228722890206,59.47966393888193,2.0584672059849982e-05
52.22000000000826,65565.00345021125,0.036048058512948226,0.00018522921785393338,450.2547034305317,450.0416490625652,199.99826459420115,2.76142137583472,59.87826781140599,2.1087598431425714e-05
52.72000000000852,66108.75583832082,0.03634701705594615,0.00022077696164277512,450.25482061579027,450.04169009682755,199.99818371405755,3.0114189086132215,60.27993838974195,2.1598106886005305e-05
53.220000000008774,66732.9110782248,0.0366901816014389,0.0002593934059560902,450.2549775262517,450.04173041993073,199.9981121174,3.26141484089241,60.68513109121598,2.211624692200313e-05
53.72000000000903,67443.38298118515,0.037080803600706674,0.0003010758760097419,450.25517920624657,450.04177033780957,199.99804958182642,3.511408134462721,61.09433436784282,2.2642068478044372e-05
54.220000000009286,68246.74365355568,0.037522496439884284,0.0003458213287238121,450.2554310411764,450.04181017869604,199.99799575152252,3.761397077723486,61.50807329922314,2.3175621996078582e-05
